Needle 6	
lengths (µm)	widths (µm)
2400	521.19
2300	514.95
2200	515.95
2100	505.48
2000	488.45
1900	484.52
1800	475.36
1700	467.5
1600	453.1
1500	441.31
1400	428.21
1300	410
1200	398.1
1100	382.38
1000	357.5
900	347.02
800	326.07
700	298.57
600	272.38
500	240.95
400	214.76
300	176.79
200	133.57
100	83.81